""
"800	0.06226"
"799	0.06253"
"798	0.06323"
"797	0.06385"
"796	0.06479"
"795	0.06507"
"794	0.0655"
"793	0.0661"
"792	0.06683"
"791	0.06763"
"790	0.06859"
"789	0.06885"
"788	0.06952"
"787	0.07044"
"786	0.07105"
"785	0.07205"
"784	0.07297"
"783	0.0738"
"782	0.07473"
"781	0.07573"
"780	0.07682"
"779	0.0779"
"778	0.07926"
"777	0.08061"
"776	0.08157"
"775	0.08275"
"774	0.08422"
"773	0.08561"
"772	0.08678"
"771	0.08869"
"770	0.0905"
"769	0.09229"
"768	0.09409"
"767	0.09606"
"766	0.09821"
"765	0.10008"
"764	0.10227"
"763	0.10505"
"762	0.10779"
"761	0.11031"
"760	0.11307"
"759	0.116"
"758	0.11952"
"757	0.12303"
"756	0.12662"
"755	0.1305"
"754	0.13447"
"753	0.13862"
"752	0.14325"
"751	0.14838"
"750	0.15352"
"749	0.15883"
"748	0.16462"
"747	0.17065"
"746	0.17671"
"745	0.18331"
"744	0.19046"
"743	0.19792"
"742	0.20601"
"741	0.21452"
"740	0.22347"
"739	0.23251"
"738	0.24185"
"737	0.25171"
"736	0.26209"
"735	0.273"
"734	0.28417"
"733	0.29603"
"732	0.30827"
"731	0.3208"
"730	0.33354"
"729	0.34641"
"728	0.35956"
"727	0.37314"
"726	0.38677"
"725	0.40049"
"724	0.41431"
"723	0.42806"
"722	0.44162"
"721	0.45528"
"720	0.46874"
"719	0.48173"
"718	0.4941"
"717	0.50608"
"716	0.5176"
"715	0.52814"
"714	0.53847"
"713	0.54818"
"712	0.55753"
"711	0.56582"
"710	0.57341"
"709	0.58043"
"708	0.58635"
"707	0.59176"
"706	0.59681"
"705	0.60059"
"704	0.60369"
"703	0.6067"
"702	0.60925"
"701	0.61108"
"700	0.61251"
"699	0.61358"
"698	0.61407"
"697	0.61414"
"696	0.61407"
"695	0.61388"
"694	0.61352"
"693	0.61296"
"692	0.61216"
"691	0.61111"
"690	0.60986"
"689	0.60868"
"688	0.60745"
"687	0.60614"
"686	0.60466"
"685	0.6031"
"684	0.60171"
"683	0.60025"
"682	0.59866"
"681	0.59728"
"680	0.59589"
"679	0.59454"
"678	0.59323"
"677	0.59184"
"676	0.59061"
"675	0.58944"
"674	0.58847"
"673	0.58761"
"672	0.58645"
"671	0.58554"
"670	0.58486"
"669	0.58442"
"668	0.584"
"667	0.58371"
"666	0.5837"
"665	0.58382"
"664	0.58395"
"663	0.58438"
"662	0.585"
"661	0.58579"
"660	0.58683"
"659	0.58794"
"658	0.58931"
"657	0.59088"
"656	0.59259"
"655	0.59429"
"654	0.59599"
"653	0.59788"
"652	0.59999"
"651	0.60219"
"650	0.60448"
"649	0.6068"
"648	0.609"
"647	0.61114"
"646	0.61324"
"645	0.61516"
"644	0.61712"
"643	0.61929"
"642	0.62127"
"641	0.62287"
"640	0.62463"
"639	0.62639"
"638	0.62778"
"637	0.62905"
"636	0.63012"
"635	0.63122"
"634	0.63221"
"633	0.63307"
"632	0.63367"
"631	0.63403"
"630	0.63437"
"629	0.63451"
"628	0.63471"
"627	0.6346"
"626	0.63447"
"625	0.63437"
"624	0.63406"
"623	0.6337"
"622	0.63279"
"621	0.63187"
"620	0.63122"
"619	0.63029"
"618	0.62942"
"617	0.62866"
"616	0.62786"
"615	0.62655"
"614	0.62527"
"613	0.62405"
"612	0.62282"
"611	0.6213"
"610	0.61986"
"609	0.61838"
"608	0.61717"
"607	0.61571"
"606	0.61408"
"605	0.61248"
"604	0.61097"
"603	0.60919"
"602	0.60766"
"601	0.6062"
"600	0.60471"
"599	0.60317"
"598	0.6016"
"597	0.6"
"596	0.59882"
"595	0.59701"
"594	0.5953"
"593	0.59384"
"592	0.59263"
"591	0.59126"
"590	0.58936"
"589	0.58786"
"588	0.58622"
"587	0.58461"
"586	0.58321"
"585	0.58183"
"584	0.58057"
"583	0.57886"
"582	0.57726"
"581	0.57586"
"580	0.57407"
"579	0.57253"
"578	0.57104"
"577	0.56954"
"576	0.56815"
"575	0.56621"
"574	0.56453"
"573	0.56278"
"572	0.56091"
"571	0.55934"
"570	0.55765"
"569	0.55579"
"568	0.55402"
"567	0.55196"
"566	0.55033"
"565	0.54854"
"564	0.5465"
"563	0.54456"
"562	0.54256"
"561	0.54005"
"560	0.53792"
"559	0.53586"
"558	0.53388"
"557	0.5319"
"556	0.52957"
"555	0.52741"
"554	0.52516"
"553	0.5229"
"552	0.52066"
"551	0.51834"
"550	0.51627"
"549	0.51393"
"548	0.51157"
"547	0.50933"
"546	0.50707"
"545	0.50466"
"544	0.50223"
"543	0.50002"
"542	0.49749"
"541	0.49516"
"540	0.49271"
"539	0.49036"
"538	0.48812"
"537	0.48564"
"536	0.4834"
"535	0.48091"
"534	0.47831"
"533	0.47574"
"532	0.47307"
"531	0.47082"
"530	0.46828"
"529	0.46593"
"528	0.46308"
"527	0.46042"
"526	0.45784"
"525	0.45495"
"524	0.45282"
"523	0.45028"
"522	0.44751"
"521	0.44503"
"520	0.44206"
"519	0.43995"
"518	0.43715"
"517	0.43467"
"516	0.43198"
"515	0.42921"
"514	0.42667"
"513	0.4241"
"512	0.42131"
"511	0.41865"
"510	0.41593"
"509	0.41353"
"508	0.41053"
"507	0.40822"
"506	0.40558"
"505	0.40293"
"504	0.4002"
"503	0.39745"
"502	0.39489"
"501	0.39205"
"500	0.38963"
"499	0.38703"
"498	0.38435"
"497	0.38159"
"496	0.37887"
"495	0.37659"
"494	0.37381"
"493	0.37122"
"492	0.36843"
"491	0.36598"
"490	0.36356"
"489	0.3611"
"488	0.35854"
"487	0.3561"
"486	0.3534"
"485	0.35116"
"484	0.34912"
"483	0.3466"
"482	0.34413"
"481	0.34147"
"480	0.33923"
"479	0.33642"
"478	0.33364"
"477	0.33087"
"476	0.32817"
"475	0.32548"
"474	0.32287"
"473	0.32018"
"472	0.31766"
"471	0.31485"
"470	0.31216"
"469	0.30959"
"468	0.30703"
"467	0.30384"
"466	0.30137"
"465	0.29838"
"464	0.29572"
"463	0.29303"
"462	0.29033"
"461	0.28772"
"460	0.28489"
"459	0.2827"
"458	0.27985"
"457	0.27721"
"456	0.27466"
"455	0.27155"
"454	0.26886"
"453	0.26626"
"452	0.26364"
"451	0.26114"
"450	0.2583"
"449	0.25543"
"448	0.25279"
"447	0.25001"
"446	0.24752"
"445	0.24467"
"444	0.24185"
"443	0.2396"
"442	0.23682"
"441	0.23419"
"440	0.23146"
"439	0.2288"
"438	0.22621"
"437	0.22336"
"436	0.22084"
"435	0.21827"
"434	0.216"
"433	0.21329"
"432	0.21054"
"431	0.20805"
"430	0.20525"
"429	0.20268"
"428	0.20041"
"427	0.1982"
"426	0.1957"
"425	0.19302"
"424	0.19077"
"423	0.18852"
"422	0.18577"
"421	0.18327"
"420	0.18098"
"419	0.17879"
"418	0.17657"
"417	0.17422"
"416	0.17219"
"415	0.1701"
"414	0.16818"
"413	0.16603"
"412	0.16381"
"411	0.16184"
"410	0.15995"
"409	0.15806"
"408	0.15603"
"407	0.15396"
"406	0.15221"
"405	0.15049"
"404	0.14867"
"403	0.14694"
"402	0.14506"
"401	0.1432"
"400	0.14166"
"399	0.14004"
"398	0.13822"
"397	0.13623"
"396	0.13453"
"395	0.13283"
"394	0.1312"
"393	0.1297"
"392	0.1279"
"391	0.12605"
"390	0.12425"
"389	0.12278"
"388	0.12125"
"387	0.11972"
"386	0.1181"
"385	0.11671"
"384	0.1153"
"383	0.11387"
"382	0.11254"
"381	0.11117"
"380	0.10997"
"379	0.10918"
"378	0.10839"
"377	0.10772"
"376	0.10772"
"375	0.10743"
"374	0.10683"
"373	0.10694"
"372	0.10717"
"371	0.10757"
"370	0.10819"
"369	0.10886"
"368	0.10999"
"367	0.11106"
"366	0.1125"
"365	0.11487"
"364	0.11718"
"363	0.11925"
"362	0.12189"
"361	0.12512"
"360	0.12807"
"359	0.1309"
"358	0.13386"
"357	0.13696"
"356	0.14013"
"355	0.14324"
"354	0.14657"
"353	0.1495"
"352	0.15229"
"351	0.15485"
"350	0.1572"
"349	0.15985"
"348	0.16175"
"347	0.16373"
"346	0.16616"
"345	0.16789"
"344	0.16892"
"343	0.17024"
"342	0.17225"
"341	0.17307"
"340	0.1741"
"339	0.17527"
"338	0.176"
"337	0.17674"
"336	0.17738"
"335	0.17822"
"334	0.17842"
"333	0.17847"
"332	0.17857"
"331	0.17946"
"330	0.17887"
"329	0.17812"
"328	0.17812"
"327	0.17768"
"326	0.17703"
"325	0.17719"
"324	0.17718"
"323	0.1758"
"322	0.17522"
"321	0.17452"
"320	0.17398"
"319	0.17203"
"318	0.17383"
"317	0.17439"
"316	0.17338"
"315	0.172"
"314	0.17069"
"313	0.16968"
"312	0.1685"
"311	0.16718"
"310	0.166"
"309	0.16504"
"308	0.1639"
"307	0.16263"
"306	0.1618"
"305	0.16101"
"304	0.16011"
"303	0.15927"
"302	0.15868"
"301	0.15829"
"300	0.15772"
""
